(9200, 1, 15, 170)
Note: Make sure shape dimensions are ordered as (D, N)
D = features per example
N = number of examples
SVD will be performed on: (2550, 9200)
=== SVD Complete ===
 Shapes:
        u: (2550, 140), s: (140,), v: (140, 9200)
Explained variance: [9.90338464e+15 9.56134004e+15 8.55334123e+15 8.22633345e+15
 7.87576325e+15 7.02729136e+15 6.84085604e+15 6.50477174e+15
 6.15236737e+15 5.79566169e+15 5.37098962e+15 4.92808291e+15
 4.70480938e+15 4.52084259e+15 4.37218968e+15 4.14245894e+15
 3.76168079e+15 3.54005978e+15 3.37483819e+15 3.17081548e+15
 3.11374083e+15 2.84896643e+15 2.70473498e+15 2.56049984e+15
 2.43155421e+15 2.28542220e+15 2.16205363e+15 2.04260774e+15
 1.90801040e+15 1.74056225e+15 1.67852558e+15 1.62620259e+15
 1.42807551e+15 1.37531003e+15 1.26248734e+15 1.22409858e+15
 1.19933319e+15 1.15999738e+15 1.11161396e+15 9.51016321e+14
 9.27354659e+14 8.58964641e+14 7.95470576e+14 7.84794945e+14
 7.41892189e+14 7.31492856e+14 6.78202145e+14 6.33262135e+14
 5.11414419e+14 5.05830374e+14 4.82492866e+14 4.70728398e+14
 4.68132059e+14 4.40942450e+14 4.23467543e+14 4.10716454e+14
 3.95048803e+14 3.59564619e+14 3.47992023e+14 3.38077699e+14
 3.18903138e+14 2.97071250e+14 2.93139862e+14 2.83668476e+14
 2.82724238e+14 2.59861082e+14 2.50447950e+14 2.43354595e+14
 2.37961713e+14 2.26126104e+14 2.16644273e+14 1.88832408e+14
 1.81173693e+14 1.69707978e+14 1.65294977e+14 1.59823305e+14
 1.56247502e+14 1.41715763e+14 1.39141581e+14 1.32647031e+14
 1.25142265e+14 1.20243122e+14 1.12760615e+14 1.09016831e+14
 1.08135591e+14 1.05523975e+14 9.79547452e+13 9.43125645e+13
 9.12343285e+13 8.70214938e+13 8.31399518e+13 8.02885393e+13
 7.76565119e+13 7.59742464e+13 7.32748010e+13 7.14571271e+13
 6.88164042e+13 6.72943008e+13 6.53220912e+13 6.27998190e+13
 5.95746815e+13 5.64259101e+13 5.40086042e+13 5.16055670e+13
 5.04918913e+13 4.74887580e+13 4.51116028e+13 4.23771892e+13
 4.10994457e+13 4.01455770e+13 3.73977169e+13 3.63492409e+13
 3.61938121e+13 3.50591870e+13 3.29736796e+13 3.15432023e+13
 2.91771623e+13 2.80670097e+13 2.67401428e+13 2.65171777e+13
 2.58251431e+13 2.53015914e+13 2.40404024e+13 2.34316748e+13
 2.32356208e+13 2.17167447e+13 2.13651983e+13 2.00566934e+13
 1.92864069e+13 1.78820407e+13 1.69693208e+13 1.65879525e+13
 1.63061443e+13 1.54569960e+13 1.47949668e+13 1.44418434e+13
 1.42490699e+13 1.34975912e+13 1.26055286e+13 1.25373953e+13]
Total variance: 1.7374832513482835e+17
Explained variance ratio: [5.54491541e-02 5.35340428e-02 4.78902469e-02 4.60593269e-02
 4.40964807e-02 3.93458777e-02 3.83020244e-02 3.64202850e-02
 3.44471692e-02 3.24499704e-02 3.00722270e-02 2.75923877e-02
 2.63422769e-02 2.53122449e-02 2.44799357e-02 2.31936709e-02
 2.10616900e-02 1.98208317e-02 1.88957543e-02 1.77534290e-02
 1.74338674e-02 1.59513928e-02 1.51438394e-02 1.43362654e-02
 1.36142974e-02 1.27961028e-02 1.21053609e-02 1.14365821e-02
 1.06829701e-02 9.74542624e-03 9.39808225e-03 9.10512532e-03
 7.99580970e-03 7.70037521e-03 7.06867979e-03 6.85374072e-03
 6.71507909e-03 6.49483743e-03 6.22393820e-03 5.32475032e-03
 5.19226843e-03 4.80935200e-03 4.45384807e-03 4.39407510e-03
 4.15386212e-03 4.09563615e-03 3.79726090e-03 3.54564131e-03
 2.86341468e-03 2.83214955e-03 2.70148260e-03 2.63561322e-03
 2.62107629e-03 2.46884139e-03 2.37099920e-03 2.29960572e-03
 2.21188238e-03 2.01320606e-03 1.94841097e-03 1.89290057e-03
 1.78554200e-03 1.66330503e-03 1.64129315e-03 1.58826276e-03
 1.58297596e-03 1.45496491e-03 1.40226069e-03 1.36254492e-03
 1.33235012e-03 1.26608242e-03 1.21299355e-03 1.05727463e-03
 1.01439340e-03 9.50196741e-04 9.25488301e-04 8.94852357e-04
 8.74831397e-04 7.93468039e-04 7.79055166e-04 7.42692115e-04
 7.00672850e-04 6.73242497e-04 6.31347862e-04 6.10386374e-04
 6.05452305e-04 5.90829840e-04 5.48449642e-04 5.28057034e-04
 5.10821959e-04 4.87234253e-04 4.65501459e-04 4.49536371e-04
 4.34799622e-04 4.25380600e-04 4.10266377e-04 4.00089202e-04
 3.85303766e-04 3.76781494e-04 3.65739071e-04 3.51616843e-04
 3.33559264e-04 3.15929261e-04 3.02394739e-04 2.88940109e-04
 2.82704627e-04 2.65890052e-04 2.52580336e-04 2.37270325e-04
 2.30116226e-04 2.24775505e-04 2.09390208e-04 2.03519780e-04
 2.02649532e-04 1.96296754e-04 1.84619976e-04 1.76610719e-04
 1.63363237e-04 1.57147481e-04 1.49718339e-04 1.48469955e-04
 1.44595246e-04 1.41663875e-04 1.34602464e-04 1.31194192e-04
 1.30096484e-04 1.21592280e-04 1.19623969e-04 1.12297636e-04
 1.07984794e-04 1.00121733e-04 9.50114047e-05 9.28761197e-05
 9.12982723e-05 8.65438820e-05 8.28371736e-05 8.08600322e-05
 7.97806911e-05 7.55731543e-05 7.05784862e-05 7.01970071e-05]
Cumulative explained variance ratio: [0.05544915 0.1089832  0.15687344 0.20293277 0.24702925 0.28637513
 0.32467715 0.36109744 0.39554461 0.42799458 0.45806681 0.48565919
 0.51200147 0.53731371 0.56179365 0.58498732 0.60604901 0.62586984
 0.6447656  0.66251903 0.67995289 0.69590429 0.71104813 0.72538439
 0.73899869 0.75179479 0.76390015 0.77533673 0.7860197  0.79576513
 0.80516321 0.81426834 0.82226415 0.82996452 0.8370332  0.84388694
 0.85060202 0.85709686 0.8633208  0.86864555 0.87383782 0.87864717
 0.88310102 0.88749509 0.89164895 0.89574459 0.89954185 0.90308749
 0.90595091 0.90878306 0.91148454 0.91412015 0.91674123 0.91921007
 0.92158107 0.92388068 0.92609256 0.92810576 0.93005418 0.93194708
 0.93373262 0.93539592 0.93703722 0.93862548 0.94020845 0.94166342
 0.94306568 0.94442823 0.94576058 0.94702666 0.94823965 0.94929693
 0.95031132 0.95126152 0.952187   0.95308186 0.95395669 0.95475016
 0.95552921 0.9562719  0.95697258 0.95764582 0.95827717 0.95888755
 0.95949301 0.96008384 0.96063228 0.96116034 0.96167116 0.9621584
 0.9626239  0.96307344 0.96350824 0.96393362 0.96434388 0.96474397
 0.96512928 0.96550606 0.9658718  0.96622341 0.96655697 0.9668729
 0.9671753  0.96746424 0.96774694 0.96801283 0.96826541 0.96850268
 0.9687328  0.96895757 0.96916696 0.96937048 0.96957313 0.96976943
 0.96995405 0.97013066 0.97029402 0.97045117 0.97060089 0.97074936
 0.97089395 0.97103562 0.97117022 0.97130142 0.97143151 0.9715531
 0.97167273 0.97178503 0.97189301 0.97199313 0.97208814 0.97218102
 0.97227232 0.97235886 0.9724417  0.97252256 0.97260234 0.97267791
 0.97274849 0.97281869]
SSE: [1.73748325e+17 1.63844940e+17 1.54283600e+17 1.45730259e+17
 1.37503926e+17 1.29628163e+17 1.22600871e+17 1.15760015e+17
 1.09255243e+17 1.03102876e+17 9.73072143e+16 9.19362247e+16
 8.70081418e+16 8.23033324e+16 7.77824898e+16 7.34103002e+16
 6.92678412e+16 6.55061604e+16 6.19661006e+16 5.85912624e+16
 5.54204470e+16 5.23067061e+16 4.94577397e+16 4.67530047e+16
 4.41925049e+16 4.17609507e+16 3.94755285e+16 3.73134748e+16
 3.52708671e+16 3.33628567e+16 3.16222945e+16 2.99437689e+16
 2.83175663e+16 2.68894908e+16 2.55141808e+16 2.42516934e+16
 2.30275948e+16 2.18282616e+16 2.06682643e+16 1.95566503e+16
 1.86056340e+16 1.76782793e+16 1.68193147e+16 1.60238441e+16
 1.52390492e+16 1.44971570e+16 1.37656641e+16 1.30874620e+16
 1.24541998e+16 1.19427854e+16 1.14369550e+16 1.09544622e+16
 1.04837338e+16 1.00156017e+16 9.57465927e+15 9.15119173e+15
 8.74047527e+15 8.34542647e+15 7.98586185e+15 7.63786983e+15
 7.29979213e+15 6.98088899e+15 6.68381774e+15 6.39067788e+15
 6.10700940e+15 5.82428516e+15 5.56442408e+15 5.31397613e+15
 5.07062154e+15 4.83265982e+15 4.60653372e+15 4.38988945e+15
 4.20105704e+15 4.01988334e+15 3.85017537e+15 3.68488039e+15
 3.52505709e+15 3.36880958e+15 3.22709382e+15 3.08795224e+15
 2.95530521e+15 2.83016294e+15 2.70991982e+15 2.59715921e+15
 2.48814237e+15 2.38000678e+15 2.27448281e+15 2.17652806e+15
 2.08221550e+15 1.99098117e+15 1.90395968e+15 1.82081972e+15
 1.74053119e+15 1.66287467e+15 1.58690043e+15 1.51362563e+15
 1.44216850e+15 1.37335209e+15 1.30605779e+15 1.24073570e+15
 1.17793588e+15 1.11836120e+15 1.06193529e+15 1.00792669e+15
 9.56321121e+14 9.05829229e+14 8.58340471e+14 8.13228868e+14
 7.70851679e+14 7.29752234e+14 6.89606657e+14 6.52208940e+14
 6.15859699e+14 5.79665887e+14 5.44606700e+14 5.11633020e+14
 4.80089818e+14 4.50912655e+14 4.22845646e+14 3.96105503e+14
 3.69588325e+14 3.43763182e+14 3.18461591e+14 2.94421188e+14
 2.70989514e+14 2.47753893e+14 2.26037148e+14 2.04671950e+14
 1.84615256e+14 1.65328849e+14 1.47446809e+14 1.30477488e+14
 1.13889535e+14 9.75833911e+13 8.21263951e+13 6.73314283e+13
 5.28895849e+13 3.86405150e+13 2.51429238e+13 1.25373953e+13]
MSE: [7.40615197e+09 6.98401281e+09 6.57645356e+09 6.21186101e+09
 5.86120741e+09 5.52549712e+09 5.22595359e+09 4.93435700e+09
 4.65708625e+09 4.39483700e+09 4.14779260e+09 3.91885016e+09
 3.70878695e+09 3.50824094e+09 3.31553665e+09 3.12916880e+09
 2.95259340e+09 2.79224895e+09 2.64135126e+09 2.49749627e+09
 2.36233789e+09 2.22961237e+09 2.10817305e+09 1.99288170e+09
 1.88373849e+09 1.78009167e+09 1.68267385e+09 1.59051470e+09
 1.50344702e+09 1.42211665e+09 1.34792389e+09 1.27637549e+09
 1.20705739e+09 1.14618460e+09 1.08756099e+09 1.03374652e+09
 9.81568407e+08 9.30445935e+08 8.81000182e+08 8.33616807e+08
 7.93079027e+08 7.53549843e+08 7.16935835e+08 6.83028308e+08
 6.49575838e+08 6.17952130e+08 5.86771701e+08 5.57862829e+08
 5.30869558e+08 5.09070137e+08 4.87508740e+08 4.66942122e+08
 4.46876973e+08 4.26922494e+08 4.08126994e+08 3.90076374e+08
 3.72569278e+08 3.55730028e+08 3.40403318e+08 3.25569899e+08
 3.11159085e+08 2.97565601e+08 2.84902717e+08 2.72407412e+08
 2.60315831e+08 2.48264500e+08 2.37187727e+08 2.26512197e+08
 2.16139025e+08 2.05995730e+08 1.96356936e+08 1.87122312e+08
 1.79073190e+08 1.71350526e+08 1.64116597e+08 1.57070775e+08
 1.50258188e+08 1.43598021e+08 1.37557281e+08 1.31626268e+08
 1.25972089e+08 1.20637807e+08 1.15512354e+08 1.10705848e+08
 1.06058925e+08 1.01449565e+08 9.69515264e+07 9.27761323e+07
 8.87559889e+07 8.48670575e+07 8.11577015e+07 7.76137990e+07
 7.41914401e+07 7.08812734e+07 6.76428144e+07 6.45194214e+07
 6.14735080e+07 5.85401575e+07 5.56716877e+07 5.28872848e+07
 5.02103957e+07 4.76709805e+07 4.52657840e+07 4.29636269e+07
 4.07639011e+07 3.86116466e+07 3.65874029e+07 3.46644871e+07
 3.28581278e+07 3.11062333e+07 2.93949981e+07 2.78008926e+07
 2.62514791e+07 2.47086908e+07 2.32142668e+07 2.18087391e+07
 2.04641866e+07 1.92204883e+07 1.80241111e+07 1.68842925e+07
 1.57539781e+07 1.46531621e+07 1.35746629e+07 1.25499228e+07
 1.15511302e+07 1.05606945e+07 9.63500205e+06 8.72429453e+06
 7.86936302e+06 7.04726554e+06 6.28503021e+06 5.56170025e+06
 4.85462640e+06 4.15956484e+06 3.50069885e+06 2.87005236e+06
 2.25445801e+06 1.64708078e+06 1.07173588e+06 5.34415825e+05]

 (9200, 1, 15, 170)
Note: Make sure shape dimensions are ordered as (D, N)
D = features per example
N = number of examples
SVD will be performed on: (2550, 9200)
=== SVD Complete ===
 Shapes:
        u: (2550, 80), s: (80,), v: (80, 9200)
Explained variance: [9.76084337e+15 9.44774212e+15 8.43702260e+15 8.08158336e+15
 7.70832110e+15 6.93238496e+15 6.72113368e+15 6.43299408e+15
 6.03916405e+15 5.66356562e+15 5.24728811e+15 4.74263979e+15
 4.58457708e+15 4.44943993e+15 4.22687819e+15 3.91552500e+15
 3.58301554e+15 3.45477921e+15 3.26302336e+15 3.08299101e+15
 2.97154479e+15 2.70620899e+15 2.59030961e+15 2.47365038e+15
 2.28641569e+15 2.12822622e+15 2.06688086e+15 1.86289221e+15
 1.74886850e+15 1.65072779e+15 1.55577105e+15 1.50789001e+15
 1.31949537e+15 1.23685260e+15 1.18334922e+15 1.11308861e+15
 1.09307371e+15 1.06082985e+15 1.03200787e+15 8.86598310e+14
 8.55023000e+14 7.43226751e+14 7.13617526e+14 6.69457500e+14
 6.60090079e+14 6.24374170e+14 5.79931950e+14 5.19408409e+14
 4.57334513e+14 4.30077266e+14 4.07267688e+14 3.94926371e+14
 3.73469671e+14 3.68290849e+14 3.49487166e+14 3.34664519e+14
 2.95777532e+14 2.68840207e+14 2.61319488e+14 2.47917291e+14
 2.40079275e+14 2.33593756e+14 2.27731657e+14 1.99557721e+14
 1.88721399e+14 1.84439893e+14 1.73040666e+14 1.65089662e+14
 1.60449813e+14 1.43768181e+14 1.34309298e+14 1.25640045e+14
 1.20559689e+14 1.18437712e+14 1.04765148e+14 9.97127000e+13
 9.49742010e+13 8.82681281e+13 8.24834739e+13 7.62806281e+13]
Total variance: 1.6276599880290678e+17
Explained variance ratio: [0.05465106 0.05289801 0.04723898 0.04524887 0.04315897 0.0388145
 0.0376317  0.0360184  0.03381334 0.03171036 0.02937962 0.02655409
 0.02566909 0.02491246 0.02366634 0.02192307 0.02006134 0.01934334
 0.0182697  0.0172617  0.01663771 0.01515209 0.01450317 0.01384999
 0.01280167 0.01191596 0.01157249 0.01043035 0.00979193 0.00924244
 0.00871078 0.00844269 0.00738787 0.00692515 0.00662558 0.00623219
 0.00612013 0.0059396  0.00577822 0.00496407 0.00478728 0.00416133
 0.00399555 0.0037483  0.00369585 0.00349588 0.00324705 0.00290817
 0.00256062 0.00240801 0.0022803  0.0022112  0.00209106 0.00206206
 0.00195678 0.00187379 0.00165606 0.00150524 0.00146313 0.00138809
 0.00134421 0.00130789 0.00127507 0.00111733 0.00105665 0.00103268
 0.00096886 0.00092434 0.00089836 0.00080496 0.000752   0.00070346
 0.00067501 0.00066313 0.00058658 0.00055829 0.00053176 0.00049421
 0.00046183 0.0004271 ]
Cumulative explained variance ratio: [0.05465106 0.10754907 0.15478805 0.20003692 0.24319589 0.28201038
 0.31964208 0.35566048 0.38947383 0.42118419 0.45056381 0.4771179
 0.50278699 0.52769946 0.55136579 0.57328886 0.5933502  0.61269354
 0.63096324 0.64822494 0.66486265 0.68001475 0.69451792 0.70836791
 0.72116958 0.73308554 0.74465802 0.75508838 0.76488031 0.77412275
 0.78283353 0.79127622 0.79866409 0.80558924 0.81221483 0.81844702
 0.82456715 0.83050675 0.83628497 0.84124905 0.84603633 0.85019766
 0.85419322 0.85794151 0.86163737 0.86513324 0.86838029 0.87128846
 0.87384908 0.87625709 0.87853739 0.88074858 0.88283964 0.88490171
 0.88685849 0.88873228 0.89038834 0.89189358 0.89335671 0.8947448
 0.89608901 0.8973969  0.89867197 0.8997893  0.90084595 0.90187863
 0.90284749 0.90377183 0.90467019 0.90547515 0.90622715 0.90693061
 0.90760562 0.90826876 0.90885534 0.90941363 0.90994539 0.91043961
 0.91090143 0.91132853]
SSE: [1.62765999e+17 1.53005155e+17 1.43557413e+17 1.35120391e+17
 1.27038807e+17 1.19330486e+17 1.12398101e+17 1.05676968e+17
 9.92439735e+16 9.32048095e+16 8.75412439e+16 8.22939558e+16
 7.75513160e+16 7.29667389e+16 6.85172990e+16 6.42904208e+16
 6.03748958e+16 5.67918802e+16 5.33371010e+16 5.00740777e+16
 4.69910866e+16 4.40195419e+16 4.13133329e+16 3.87230233e+16
 3.62493729e+16 3.39629572e+16 3.18347310e+16 2.97678501e+16
 2.79049579e+16 2.61560894e+16 2.45053616e+16 2.29495905e+16
 2.14417005e+16 2.01222052e+16 1.88853526e+16 1.77020033e+16
 1.65889147e+16 1.54958410e+16 1.44350112e+16 1.34030033e+16
 1.25164050e+16 1.16613820e+16 1.09181552e+16 1.02045377e+16
 9.53508021e+15 8.87499013e+15 8.25061596e+15 7.67068401e+15
 7.15127561e+15 6.69394109e+15 6.26386383e+15 5.85659614e+15
 5.46166977e+15 5.08820010e+15 4.71990925e+15 4.37042208e+15
 4.03575756e+15 3.73998003e+15 3.47113982e+15 3.20982034e+15
 2.96190305e+15 2.72182377e+15 2.48823001e+15 2.26049836e+15
 2.06094064e+15 1.87221924e+15 1.68777934e+15 1.51473868e+15
 1.34964902e+15 1.18919920e+15 1.04543102e+15 9.11121724e+14
 7.85481680e+14 6.64921991e+14 5.46484279e+14 4.41719131e+14
 3.42006431e+14 2.47032230e+14 1.58764102e+14 7.62806281e+13]
MSE: [6.93802211e+09 6.52195888e+09 6.11924183e+09 5.75960745e+09
 5.41512393e+09 5.08655099e+09 4.79105291e+09 4.50455957e+09
 4.23034840e+09 3.97292453e+09 3.73151082e+09 3.50784125e+09
 3.30568269e+09 3.11026167e+09 2.92060098e+09 2.74042714e+09
 2.57352497e+09 2.42079626e+09 2.27353372e+09 2.13444491e+09
 2.00303012e+09 1.87636581e+09 1.76101163e+09 1.65059775e+09
 1.54515656e+09 1.44769638e+09 1.35697915e+09 1.26887682e+09
 1.18946965e+09 1.11492282e+09 1.04455932e+09 9.78243416e+08
 9.13968480e+08 8.57724005e+08 8.05002241e+08 7.54561097e+08
 7.07114865e+08 6.60521783e+08 6.15303119e+08 5.71313014e+08
 5.33521099e+08 4.97075106e+08 4.65394511e+08 4.34976032e+08
 4.06439907e+08 3.78303075e+08 3.51688660e+08 3.26968628e+08
 3.04828457e+08 2.85334232e+08 2.67001868e+08 2.49641779e+08
 2.32807748e+08 2.16888325e+08 2.01189653e+08 1.86292501e+08
 1.72027177e+08 1.59419439e+08 1.47959924e+08 1.36820986e+08
 1.26253327e+08 1.16019769e+08 1.06062660e+08 9.63554287e+07
 8.78491320e+07 7.98047415e+07 7.19428535e+07 6.45668661e+07
 5.75297961e+07 5.06905031e+07 4.45622772e+07 3.88372432e+07
 3.34817425e+07 2.83427959e+07 2.32943000e+07 1.88286075e+07
 1.45782792e+07 1.05299331e+07 6.76743828e+06 3.25151867e+06]

 (9200, 1, 15, 170)
Note: Make sure shape dimensions are ordered as (D, N)
D = features per example
N = number of examples
SVD will be performed on: (2550, 9200)
=== SVD Complete ===
 Shapes:
        u: (2550, 40), s: (40,), v: (40, 9200)
Explained variance: [9.24549281e+15 8.82831815e+15 7.90262499e+15 7.68704966e+15
 7.44105891e+15 6.32293433e+15 6.11773777e+15 5.73664956e+15
 5.56685730e+15 5.17500035e+15 4.92920843e+15 4.42095241e+15
 4.26246801e+15 3.89880881e+15 3.48225792e+15 3.42226008e+15
 3.03588014e+15 2.92190721e+15 2.78270044e+15 2.75832281e+15
 2.53770895e+15 2.31529931e+15 2.18264874e+15 2.00434049e+15
 1.90294424e+15 1.79720259e+15 1.61462504e+15 1.54435868e+15
 1.38224214e+15 1.33621176e+15 1.21531602e+15 1.07125104e+15
 9.86758643e+14 9.49350871e+14 8.66424737e+14 7.93993579e+14
 7.39650435e+14 7.17174508e+14 6.48284529e+14 5.59124145e+14]
Total variance: 1.3310340052704955e+17
Explained variance ratio: [0.05176561 0.04942985 0.04424688 0.04303987 0.04166257 0.03540218
 0.03425328 0.03211956 0.03116889 0.02897488 0.02759869 0.02475296
 0.0238656  0.02182947 0.0194972  0.01916127 0.01699792 0.01635979
 0.01558037 0.01544388 0.01420866 0.01296339 0.01222067 0.01122232
 0.0106546  0.01006256 0.0090403  0.00864688 0.00773919 0.00748146
 0.00680457 0.00599795 0.00552487 0.00531543 0.00485112 0.00444558
 0.00414131 0.00401547 0.00362975 0.00313054]
Cumulative explained variance ratio: [0.05176561 0.10119546 0.14544234 0.18848221 0.23014477 0.26554695
 0.29980023 0.33191979 0.36308868 0.39206356 0.41966225 0.44441521
 0.46828081 0.49011028 0.50960748 0.52876875 0.54576668 0.56212647
 0.57770683 0.59315071 0.60735937 0.62032276 0.63254343 0.64376575
 0.65442036 0.66448291 0.67352322 0.6821701  0.68990929 0.69739075
 0.70419532 0.71019326 0.71571813 0.72103356 0.72588468 0.73033026
 0.73447157 0.73848704 0.74211679 0.74524733]
SSE: [1.33103401e+17 1.23857908e+17 1.15029590e+17 1.07126965e+17
 9.94399149e+16 9.19988560e+16 8.56759217e+16 7.95581839e+16
 7.38215343e+16 6.82546770e+16 6.30796767e+16 5.81504683e+16
 5.37295159e+16 4.94670478e+16 4.55682390e+16 4.20859811e+16
 3.86637210e+16 3.56278409e+16 3.27059337e+16 2.99232333e+16
 2.71649104e+16 2.46272015e+16 2.23119022e+16 2.01292534e+16
 1.81249130e+16 1.62219687e+16 1.44247661e+16 1.28101411e+16
 1.12657824e+16 9.88354026e+15 8.54732850e+15 7.33201249e+15
 6.26076145e+15 5.27400280e+15 4.32465193e+15 3.45822720e+15
 2.66423362e+15 1.92458318e+15 1.20740867e+15 5.59124145e+14]
MSE: [5.67363174e+09 5.27953571e+09 4.90322206e+09 4.56636678e+09
 4.23870055e+09 3.92151986e+09 3.65200007e+09 3.39122694e+09
 3.14669797e+09 2.90940652e+09 2.68881827e+09 2.47870709e+09
 2.29026069e+09 2.10856981e+09 1.94238018e+09 1.79394634e+09
 1.64806995e+09 1.51866330e+09 1.39411482e+09 1.27550014e+09
 1.15792457e+09 1.04975283e+09 9.51061474e+08 8.58024443e+08
 7.72587935e+08 6.91473517e+08 6.14866416e+08 5.46041819e+08
 4.80212379e+08 4.21293276e+08 3.64336253e+08 3.12532502e+08
 2.66869627e+08 2.24808304e+08 1.84341515e+08 1.47409514e+08
 1.13564945e+08 8.20367938e+07 5.14666954e+07 2.38330837e+07]